'Id: "Commander Sample ID" Comment: "" Operator: "Lab Manager" Anode: Cu Scantype: "Coupled TwoTheta/Theta" 
5.00010013580322 58.9843726561716
5.07267325371504 59.4531226375452
5.14524637162685 60.3906226002923
5.21781948953867 60.1302059439736
5.29039260745049 59.5833309657045
5.3629657253623 57.0833310650456
5.43553884327412 57.6041643776828
5.50811196118593 56.9010394056225
5.58068507909775 57.6562477089466
5.65325819700956 58.2291643528476
5.72583131492138 55.3385394677107
5.79840443283319 54.6614561612822
5.87097755074501 56.9270810712544
5.94355066865683 55.2343728051832
6.01612378656864 53.9843728548538
6.08869690448046 53.5156228734802
6.16127002239227 53.0729145577385
6.23384314030409 50.1562480069698
6.3064162582159 53.1249978890022
6.37898937612772 51.9270812699365
6.45156249403954 51.5624979510904
6.52413561195135 49.6354146943325
6.59670872986317 50.0520813444423
6.66928184777498 49.921873016283
6.7418549656868 50.7031229852389
6.81442808359861 50.2604146694972
6.88700120151043 49.0104147191678
6.95957431942225 48.2812480814756
7.03214743733406 45.8333315120804
7.10472055524588 47.6822897719427
7.17729367315769 46.6666648123
7.24986679106951 45.7812481808166
7.32243990898132 44.9739565462289
7.39501302689314 44.9739565462289
7.46758614480495 42.9427066269435
7.54015926271677 42.7864566331523
7.61273238062859 43.984373252218
7.6853054985404 42.9947899582072
7.75787861645222 40.5729150544439
7.83045173436403 41.6666650109822
7.90302485227585 39.4791650979056
7.97559797018766 40.9114567076581
8.04817108809948 39.4791650979056
8.1207442060113 40.0781234074385
8.19331732392311 39.8177067511198
8.26589044183493 37.4479151786202
8.33846355974674 39.0885401134276
8.41103667765856 39.0364567821639
8.48360979557037 37.9687484912575
8.55618291348219 36.4843735502413
8.628756031394 35.1822902686481
8.70132914930582 36.3802068877138
8.77390226721764 35.1302069373843
8.84647538512945 35.2083319342799
8.91904850304127 35.2343735999118
8.99162162095308 36.718748540928
9.0641947388649 35.2083319342799
9.13676785677671 33.5416653338406
9.20934097468853 34.244790305901
9.28191409260035 35.3124985968074
9.35448721051216 36.3541652220819
9.42706032842398 32.9947903555715
9.49963344633579 33.1249986837308
9.57220656424761 31.7708320708739
9.64477968215942 32.4739570429342
9.71735280007124 33.1770820149945
9.78992591798306 32.7604153648847
9.86249903589487 35.1822902686481
9.93507215380669 33.5156236682088
10.0076452717185 34.0624986464779
10.0802183896303 33.1770820149945
10.1527915075421 34.2708319715328
10.2253646254539 33.5937486651044
10.2979377433658 32.2656237178793
10.3705108612776 31.4583320832915
10.4430839791894 31.4583320832915
10.5156570971012 31.0937487644454
10.588230215013 31.9270820646651
10.6608033329248 33.5937486651044
10.7333764508367 31.7187487396102
10.8059495687485 33.098957018099
10.8785226866603 33.098957018099
10.9510958045721 32.4739570429342
11.0236689224839 31.6406237427146
11.0962420403957 32.5260403741979
11.1688151583076 33.0208320212034
11.2413882762194 32.7604153648847
11.3139613941312 31.6927070739783
11.386534512043 32.8385403617803
11.4591076299548 32.2656237178793
11.5316807478666 33.8020819901593
11.6042538657784 31.5104154145553
11.6768269836903 32.9427070243078
11.7494001016021 31.8489570677695
11.8219732195139 31.744790405242
11.8945463374257 31.6406237427146
11.9671194553375 32.5781237054617
12.0396925732493 32.0833320584563
12.1122656911612 32.8645820274122
12.184838809073 31.0156237675498
12.2574119269848 31.7187487396102
12.3299850448966 31.5364570801871
12.4025581628084 31.0156237675498
12.4751312807202 29.8958321453797
12.547704398632 31.4583320832915
12.6202775165439 30.6510404487038
12.6928506344557 30.416665458017
12.7654237523675 31.2239570926048
12.8379968702793 31.8749987334013
12.9105699881911 31.744790405242
12.9831431061029 33.2291653462583
13.0557162240148 31.2760404238685
13.1282893419266 30.4427071236488
13.2008624598384 32.0312487271925
13.2734355777502 33.7760403245274
13.346008695662 31.3281237551322
13.4185818135738 31.0937487644454
13.4911549314857 31.0416654331817
13.5637280493975 29.2968738358468
13.6363011673093 30.0781238048027
13.7088742852211 31.0416654331817
13.7814474031329 29.1406238420556
13.8540205210447 31.2499987582366
13.9265936389565 29.3749988327424
13.9991667568684 29.9739571422753
14.0717398747802 30.5729154518082
14.144312992692 28.8281238544733
14.2168861106038 29.3749988327424
14.2894592285156 30.1822904673302
14.3620323464274 29.2968738358468
14.4346054643393 29.3489571671106
14.5071785822511 30.0781238048027
14.5797517001629 30.026040473539
14.6523248180747 28.3333322074679
14.7248979359865 29.6874988203248
14.7974710538983 30.5208321205444
14.8700441718102 28.6718738606821
14.942617289722 28.9843738482645
15.0151904076338 26.6666656070286
15.0877635255456 28.0729155511492
15.1603366434574 29.9218738110116
15.2329097613692 28.880207185737
15.305482879281 26.7968739351879
15.3780559971929 28.9322905170007
15.4506291151047 28.2812488762041
15.5232022330165 27.552082238512
15.5957753509283 26.2760406225506
15.6683484688401 28.4635405356272
15.7409215867519 26.4062489507099
15.8134947046638 27.2656239165614
15.8860678225756 27.2135405852977
15.9586409404874 26.4583322819737
16.0312140583992 26.7187489382923
16.103787176311 28.0729155511492
16.1763602942228 27.6041655697757
16.2489334121346 26.9270822633472
16.3215065300465 26.9010405977154
16.3940796479583 24.7656240159025
16.4666527658701 27.6562489010394
16.5392258837819 26.8229156008198
16.6117990016937 25.3906239910673
16.6843721196055 25.1041656691168
16.7569452375174 26.8229156008198
16.8295183554292 26.3541656194462
16.902091473341 25.442707322331
16.9746645912528 26.6666656070286
17.0472377091646 25.5208323192266
17.1198108270764 25.2604156629079
17.1923839449883 26.5104156132374
17.2649570629001 24.5833323564795
17.3375301808119 26.5624989445011
17.4101032987237 25.442707322331
17.4826764166355 25.8333323068089
17.5552495345473 26.197915625655
17.6278226524591 25.3906239910673
17.700395770371 24.4010406970564
17.7729688882828 27.1093739227703
17.8455420061946 25.8854156380727
17.9181151241064 25.9114573037045
17.9906882420182 24.8437490127981
18.06326135993 25.5989573161222
18.1358344778419 26.197915625655
18.2084075957537 26.5104156132374
18.2809807136655 25.0781240034849
18.3535538315773 25.4947906535947
18.4261269494891 26.015623966232
18.4987000674009 26.4062489507099
18.5712731853127 26.1197906287594
18.6438463032246 25.6510406473859
18.7164194211364 27.2395822509296
18.7889925390482 25.8333323068089
18.86156565696 26.4062489507099
18.9341387748718 25.6770823130178
19.0067118927836 27.0572905915065
19.0792850106955 25.3645823254354
19.1518581286073 26.4062489507099
19.2244312465191 25.4166656566991
19.2970043644309 26.3020822881825
19.3695774823427 26.5364572788693
19.4421506002545 26.6406239413967
19.5147237181664 26.0416656318638
19.5872968360782 26.4583322819737
19.65986995399 27.343748913457
19.7324430719018 27.0833322571384
19.8050161898136 27.9687488886218
19.8775893077254 29.2968738358468
19.9501624256372 27.5260405728801
20.0227355435491 26.4322906163418
20.0953086614609 28.2291655449404
20.1678817793727 26.015623966232
20.2404548972845 27.3177072478252
20.3130280151963 27.6822905666713
20.3856011331081 26.0677072974957
20.45817425102 27.9947905542536
20.5307473689318 27.9427072229899
20.6033204868436 27.9687488886218
20.6758936047554 28.1770822136767
20.7484667226672 28.2031238793085
20.821039840579 29.6354154890611
20.8936129584908 28.880207185737
20.9661860764027 29.1666655076875
21.0387591943145 28.0729155511492
21.1113323122263 29.270832170215
21.1839054301381 28.4374988699953
21.2564785480499 28.5677071981546
21.3290516659617 29.843748814116
21.4016247838736 29.6354154890611
21.4741979017854 28.8281238544733
21.5467710196972 30.1822904673302
21.619344137609 28.307290541836
21.6919172555208 28.5156238668909
21.7644903734326 28.1770822136767
21.8370634913445 30.3645821267532
21.9096366092563 30.5468737861763
21.9822097271681 30.9114571050224
22.0547828450799 29.8697904797478
22.1273559629917 32.0572903928244
22.1999290809035 30.6510404487038
22.2725021988153 30.8072904424949
22.3450753167272 30.7812487768631
22.417648434639 31.5885404114508
22.4902215525508 34.817706949802
22.5627946704626 33.1770820149945
22.6353677883744 30.2864571298577
22.7079409062862 30.5729154518082
22.7805140241981 30.5468737861763
22.8530871421099 33.4374986713132
22.9256602600217 31.5104154145553
22.9982333779335 32.5520820398298
23.0708064958453 33.0208320212034
23.1433796137571 31.9270820646651
23.2159527316689 31.1979154269729
23.2885258495808 32.2656237178793
23.3610989674926 32.5260403741979
23.4336720854044 32.5781237054617
23.5062452033162 34.7135402872745
23.578818321228 33.7760403245274
23.6513914391398 35.4947902562304
23.7239645570517 33.4374986713132
23.7965376749635 35.1822902686481
23.8691107928753 33.9843736495823
23.9416839107871 32.9427070243078
24.0142570286989 33.6458319963681
24.0868301466107 33.9062486526867
24.1594032645226 33.2031236806264
24.2319763824344 33.9062486526867
24.3045495003462 33.9583319839505
24.377122618258 31.5104154145553
24.4496957361698 33.4114570056813
24.5222688540816 33.2031236806264
24.5948419719934 33.8020819901593
24.6674150899053 34.6093736247471
24.7399882078171 34.3229153027966
24.8125613257289 35.7291652469172
24.8851344436407 34.4010402996921
24.9577075615525 34.9479152779613
25.0302806794643 34.8958319466976
25.1028537973762 34.1666653090054
25.175426915288 33.4895820025769
25.2480000331998 34.427081965324
25.3205731511116 35.6510402500216
25.3931462690234 32.8645820274122
25.4657193869352 33.854165321423
25.5382925048471 34.6354152903789
25.6108656227589 34.2187486402691
25.6834387406707 32.8124986961484
25.7560118585825 33.098957018099
25.8285849764943 32.5520820398298
25.9011580944061 33.4374986713132
25.9737312123179 34.8437486154338
26.0463043302298 35.1302069373843
26.1188774481416 34.427081965324
26.1914505660534 33.4114570056813
26.2640236839652 35.2604152655436
26.336596801877 34.6614569560108
26.4091699197888 33.854165321423
26.4817430377007 35.1302069373843
26.5543161556125 35.4427069249667
26.6268892735243 37.109373525406
26.6994623914361 39.0364567821639
26.7720355093479 36.0937485657633
26.8446086272597 32.5260403741979
26.9171817451715 31.3541654207641
26.9897548630834 31.9270820646651
27.0623279809952 29.8177071484841
27.134901098907 29.9218738110116
27.2074742168188 30.8333321081268
27.2800473347306 30.3124987954895
27.3526204526424 29.8697904797478
27.4251935705543 29.4270821640061
27.4977666884661 30.6249987830719
27.5703398063779 28.880207185737
27.6429129242897 30.2343737985939
27.7154860422015 30.416665458017
27.7880591601133 28.0208322198855
27.8606322780252 27.9427072229899
27.933205395937 26.5624989445011
28.0057785138488 26.5624989445011
28.0783516317606 27.7083322323031
28.1509247496724 26.1718739600232
28.2234978675842 27.6562489010394
28.296070985496 27.3177072478252
28.3686441034079 25.0781240034849
28.4412172213197 26.770832269556
28.5137903392315 25.9114573037045
28.5863634571433 25.9895823006001
28.6589365750551 25.1302073347486
28.7315096929669 25.2864573285398
28.8040828108788 26.770832269556
28.8766559287906 27.161457254034
28.9492290467024 27.2916655821933
29.0218021646142 23.7760407218917
29.094375282526 24.8958323440618
29.1669484004378 25.3124989941717
29.2395215183496 23.7760407218917
29.3120946362615 22.8906240904083
29.3846677541733 23.1770824123588
29.4572408720851 24.86979067843
29.5298139899969 22.9166657560402
29.6023871079087 22.5260407715622
29.6749602258205 22.3177074465073
29.7475333437324 23.7760407218917
29.8201064616442 22.2916657808755
29.892679579556 21.9270824620294
29.9652526974678 23.0729157498314
30.0378258153796 22.005207458925
30.1103989332914 22.9166657560402
30.1829720512033 20.6770825116999
30.2555451691151 21.3541658181284
30.3281182870269 21.1458324930734
30.4006914049387 20.0520825365352
30.4732645228505 21.3020824868646
30.5458376407623 20.9114575023867
30.6184107586741 19.2187492363155
30.690983876586 20.4947908522768
30.7635569944978 21.6666658057107
30.8361301124096 19.895832542744
30.9087032303214 19.1927075706837
30.9812763482332 19.1145825737881
31.053849466145 18.4895825986233
31.1264225840569 19.5833325551616
31.1989957019687 19.8177075458484
31.2715688198805 19.1406242394199
31.3441419377923 19.0364575768925
31.4167150557041 18.0729159485135
31.4892881736159 18.7239575893101
31.5618612915277 17.7343742952993
31.6344344094396 18.3854159360959
31.7070075273514 18.3333326048321
31.7795806452632 18.177082611041
31.852153763175 18.4895825986233
31.9247268810868 17.8906242890905
31.9972999989986 19.2968742332111
32.0698731169105 19.2447909019474
32.1424462348223 17.4218743077169
32.2150193527341 18.8020825862057
32.2875924706459 17.7604159609311
32.3601655885577 18.7760409205738
32.4327387064695 17.6302076327718
32.5053118243814 18.4635409329915
32.5778849422932 17.9427076203542
32.650458060205 18.0468742828816
32.7230311781168 17.2916659795576
32.7956042960286 17.1874993170301
32.8681774139404 17.4739576389806
32.9407505318522 16.5104160106017
33.0133236497641 16.9791659919752
33.0858967676759 16.5364576762335
33.1584698855877 17.9687492859861
33.2310430034995 16.8749993294478
33.3036161214113 16.640624338761
33.3761892393231 16.2760410199149
33.448762357235 17.5260409702444
33.5213354751468 15.9374993667007
33.5939085930586 15.9635410323325
33.6664817109704 16.1718743573874
33.7390548288822 16.1979160230193
33.811627946794 16.06770769486
33.8842010647058 16.6927076700247
33.9567741826177 15.7812493729095
34.0293473005295 16.1197910261237
34.1019204184413 16.0416660292281
34.1744935363531 15.3645827227997
34.2470666542649 16.458332679338
34.3196397721767 15.494791050959
34.3922128900886 15.494791050959
34.4647860080004 15.5468743822227
34.5373591259122 15.677082710382
34.609932243824 16.4062493480742
34.6825053617358 16.822915998184
34.7550784796476 16.3281243511786
34.8276515975595 15.7812493729095
34.9002247154713 15.1562493977448
34.9727978333831 15.2604160602722
35.0453709512949 16.3541660168105
35.1179440692067 15.0260410695854
35.1905171871185 14.5833327538438
35.2630903050303 15.5208327165909
35.3356634229422 15.677082710382
35.408236540854 14.8437494101624
35.4808096587658 16.6666660043929
35.5533827766776 15.2864577259041
35.6259558945894 16.1718743573874
35.6985290125012 15.3645827227997
35.7711021304131 16.1979160230193
35.8436752483249 15.2604160602722
35.9162483662367 14.8958327414261
35.9888214841485 16.0416660292281
36.0613946020603 14.6874994163712
36.1339677199721 14.8177077445305
36.2065408378839 15.0520827352173
36.2791139557958 15.2083327290085
36.3516870737076 14.3749994287888
36.4242601916194 15.8593743698051
36.4968333095312 14.4791660913163
36.569406427443 14.1145827724702
36.6419795453548 14.7916660788987
36.7145526632667 14.2447911006295
36.7871257811785 14.7916660788987
36.8596988990903 14.3749994287888
36.9322720170021 14.7656244132668
37.0048451349139 14.2708327662614
37.0774182528257 14.4531244256844
37.1499913707376 14.6093744194756
37.2225644886494 14.1927077693658
37.2951376065612 14.0104161099427
37.367710724473 14.7135410820031
37.4402838423848 15.5729160478546
37.5128569602966 14.348957763157
37.5854300782084 15.5208327165909
37.6580031961203 13.5677077942011
37.7305763140321 15.3906243884315
37.8031494319439 15.3124993915359
37.8757225498557 14.3229160975251
37.9482956677675 15.6249993791183
38.0208687856793 14.2187494349977
38.0934419035912 15.0781244008492
38.166015021503 14.8177077445305
38.2385881394148 15.2604160602722
38.3111612573266 13.8020827848878
38.3837343752384 14.4531244256844
38.4563074931502 14.6093744194756
38.5288806110621 15.1562493977448
38.6014537289739 14.5052077569482
38.6740268468857 13.9322911130472
38.7465999647975 13.6718744567285
38.8191730827093 14.1145827724702
38.8917462006211 13.958332778679
38.9643193185329 14.7916660788987
39.0368924364448 14.4010410944207
39.1094655543566 15.2604160602722
39.1820386722684 15.6510410447502
39.2546117901802 16.0156243635963
39.327184908092 16.9270826607115
39.3997580260038 16.5624993418654
39.4723311439157 15.2604160602722
39.5449042618275 15.3124993915359
39.6174773797393 14.8697910757943
39.6900504976511 15.104166066481
39.7626236155629 13.8281244505197
39.8351967334747 14.4791660913163
39.9077698513865 14.4270827600526
39.9803429692984 14.7916660788987
40.0529160872102 14.6093744194756
40.125489205122 15.6510410447502
40.1980623230338 13.1249994784594
40.2706354409456 15.6249993791183
40.3432085588574 16.3281243511786
40.4157816767693 15.7291660416458
40.4883547946811 14.2708327662614
40.5609279125929 14.8437494101624
40.6335010305047 15.104166066481
40.7060741484165 15.0260410695854
40.7786472663283 15.2343743946404
40.8512203842402 16.1979160230193
40.923793502152 15.0781244008492
40.9963666200638 14.7656244132668
41.0689397379756 15.2604160602722
41.1415128558874 15.0520827352173
41.2140859737992 15.2864577259041
41.286659091711 15.0781244008492
41.3592322096229 16.2239576886512
41.4318053275347 16.6145826731291
41.5043784454465 16.1979160230193
41.5769515633583 16.3802076824424
41.6495246812701 16.3281243511786
41.7220977991819 15.1562493977448
41.7946709170938 16.6145826731291
41.8672440350056 17.8124992921949
41.9398171529174 16.249999354283
42.0123902708292 16.822915998184
42.084963388741 16.8749993294478
42.1575365066528 17.031249323239
42.2301096245646 16.9270826607115
42.3026827424765 16.640624338761
42.3752558603883 17.3697909764532
42.4478289783001 18.9062492487332
42.5204020962119 18.0989576141454
42.5929752141237 17.2395826482939
42.6655483320355 18.1510409454091
42.7381214499474 17.4218743077169
42.8106945678592 17.0572909888708
42.883267685771 16.9791659919752
42.9558408036828 18.4635409329915
43.0284139215946 18.2291659423047
43.1009870395064 17.8645826234586
43.1735601574183 17.031249323239
43.2461332753301 17.6822909640356
43.3187063932419 18.1510409454091
43.3912795111537 17.3958326420851
43.4638526290655 18.359374270464
43.5364257469773 18.8020825862057
43.6089988648891 17.7604159609311
43.681571982801 19.7656242145847
43.7541451007128 17.213540982662
43.8267182186246 18.3333326048321
43.8992913365364 17.8906242890905
43.9718644544482 18.9062492487332
44.04443757236 17.3177076451895
44.1170106902719 17.1614576513983
44.1895838081837 17.1874993170301
44.2621569260955 17.4739576389806
44.3347300440073 18.4635409329915
44.4073031619191 17.1614576513983
44.4798762798309 16.1458326917556
44.5524493977427 16.9791659919752
44.6250225156546 16.9791659919752
44.6975956335664 15.9895826979644
44.7701687514782 17.4739576389806
44.84274186939 17.0052076576071
44.9153149873018 14.8177077445305
44.9878881052136 16.3281243511786
45.0604612231255 15.8854160354369
45.1330343410373 15.494791050959
45.2056074589491 16.1197910261237
45.2781805768609 15.8593743698051
45.3507536947727 16.2760410199149
45.4233268126845 14.8437494101624
45.4958999305964 15.9635410323325
45.5684730485082 14.7135410820031
45.64104616642 15.6249993791183
45.7136192843318 14.5572910882119
45.7861924022436 15.2604160602722
45.8587655201554 14.4791660913163
45.9313386380672 15.1302077321129
46.0039117559791 15.0520827352173
46.0764848738909 14.0364577755746
46.1490579918027 14.0104161099427
46.2216311097145 14.0364577755746
46.2942042276263 14.4270827600526
46.3667773455381 14.5833327538438
46.43935046345 14.348957763157
46.5119235813618 14.0885411068383
46.5844966992736 13.8281244505197
46.6570698171854 13.5937494598329
46.7296429350972 13.0989578128275
46.802216053009 13.8281244505197
46.8747891709208 13.3333328035143
46.9473622888327 13.4114578004099
47.0199354067445 13.6197911254648
47.0925085246563 14.0624994412065
47.1650816425681 15.1562493977448
47.2376547604799 13.2552078066187
47.3102278783917 13.2552078066187
47.3828009963036 13.7239577879922
47.4553741142154 14.4010410944207
47.5279472321272 11.7968745312343
47.600520350039 12.7604161596133
47.6730934679508 12.4739578376628
47.7456665858626 13.9322911130472
47.8182397037745 11.666666203075
47.8908128216863 12.5260411689265
47.9633859395981 12.8645828221407
48.0359590575099 11.6145828718113
48.1085321754217 13.0989578128275
48.1811052933335 11.6927078687069
48.2536784112453 12.7604161596133
48.3262515291572 12.4739578376628
48.398824647069 11.7447911999706
48.4713977649808 12.057291187553
48.5439708828926 12.9687494846682
48.6165440008044 11.6145828718113
48.6891171187162 11.0416662279103
48.7616902366281 12.0312495219211
48.8342633545399 11.9791661906574
48.9068364724517 12.2916661782397
48.9794095903635 11.7447911999706
49.0519827082753 12.0312495219211
49.1245558261871 12.1874995157123
49.1971289440989 12.630207831454
49.2697020620108 11.2239578873333
49.3422751799226 12.2916661782397
49.4148482978344 11.3281245498608
49.4874214157462 11.8229161968662
49.559994533658 11.4322912123882
49.6325676515698 12.630207831454
49.7051407694817 12.3697911751353
49.7777138873935 12.0312495219211
49.8502870053053 10.9635412310147
49.9228601232171 11.8749995281299
49.9954332411289 12.0052078562892
50.0680063590407 11.3020828842289
50.1405794769526 11.6406245374431
50.2131525948644 12.1354161844486
50.2857257127762 11.3541662154926
50.358298830688 11.1197912248059
50.4308719485998 11.5624995405475
50.5034450665116 11.0156245622784
50.5760181844234 11.8749995281299
50.6485913023353 10.8593745684872
50.7211644202471 11.2499995529652
50.7937375381589 11.4062495467564
50.8663106560707 10.8072912372235
50.9388837739825 11.4322912123882
51.0114568918943 10.7812495715916
51.0840300098062 11.5624995405475
51.156603127718 11.5885412061794
51.2291762456298 10.130207930795
51.3017493635416 11.9531245250255
51.3743224814534 11.3020828842289
51.4468955993652 10.6249995778005
51.5194687172771 10.703124574696
51.5920418351889 10.7552079059598
51.6646149531007 10.4427079183774
51.7371880710125 10.7291662403279
51.8097611889243 11.5624995405475
51.8823343068361 10.6510412434323
51.9549074247479 10.8593745684872
52.0274805426598 11.4322912123882
52.1000536605716 10.1562495964269
52.1726267784834 10.1562495964269
52.2451998963952 11.2239578873333
52.317773014307 10.8854162341191
52.3903461322188 9.5833329525259
52.4629192501307 10.3906245871137
52.5354923680425 10.7291662403279
52.6080654859543 11.6406245374431
52.6806386038661 10.4687495840093
52.7532117217779 11.1718745560696
52.8257848396897 9.79166627758081
52.8983579576015 10.520832915273
52.9709310755134 11.0156245622784
53.0435041934252 10.7812495715916
53.116077311337 9.60937461815776
53.1886504292488 10.1041662651632
53.2612235471606 10.2083329276906
53.3337966650724 10.2083329276906
53.4063697829843 11.484374543652
53.4789429008961 9.97395793700385
53.5515160188079 10.1562495964269
53.6240891367197 10.5468745809049
53.6966622546315 10.2604162589544
53.7692353725433 9.29687463057539
53.8418084904552 9.99999960263572
53.914381608367 9.2187496336798
53.9869547262788 9.60937461815776
54.0595278441906 10.6249995778005
54.1321009621024 10.2343745933225
54.2046740800142 9.47916628999844
54.277247197926 10.8333329028554
54.3498203158379 9.81770794321267
54.4223934337497 9.55729128689403
54.4949665516615 9.47916628999844
54.5675396695733 10.2083329276906
54.6401127874851 7.91666635208661
54.7126859053969 9.76562461194894
54.7852590233088 9.47916628999844
54.8578321412206 9.81770794321267
54.9304052591324 9.84374960884453
55.0029783770442 8.85416631483371
55.075551494956 10.3906245871137
55.1481246128678 9.11458297115235
55.2206977307796 9.55729128689403
55.2932708486915 9.5052079556303
55.3658439666033 10.3645829214818
55.4384170845151 10.2864579245862
55.5109902024269 10.3385412558499
55.5835633203387 10.1562495964269
55.6561364382505 10.6249995778005
55.7287095561624 9.89583294010826
55.8012826740742 9.01041630862489
55.873855791986 9.14062463678421
55.9464289098978 10.0260412682676
56.0190020278096 9.01041630862489
56.0915751457214 9.11458297115235
56.1641482636333 9.60937461815776
56.2367213815451 9.16666630241607
56.3092944994569 9.66145794942149
56.3818676173687 9.32291629620726
56.4544407352805 9.63541628378962
56.5270138531923 9.55729128689403
56.5995869711041 9.84374960884453
56.672160089016 8.98437464299303
56.7447332069278 9.01041630862489
56.8173063248396 9.42708295873471
56.8898794427514 9.01041630862489
56.9624525606632 8.54166632725134
57.035025678575 9.16666630241607
57.1075987964869 9.94791627137199
57.1801719143987 9.37499962747098
57.2527450323105 9.89583294010826
57.3253181502223 9.16666630241607
57.3978912681341 8.43749966472389
57.4704643860459 8.85416631483371
57.5430375039577 9.08854130552048
57.6156106218696 9.29687463057539
57.6881837397814 8.17708300840525
57.7607568576932 8.67187465541066
57.833329975605 8.9322913117293
57.9059030935168 9.5833329525259
57.9784762114286 9.97395793700385
58.0510493293405 9.2187496336798
58.1236224472523 9.68749961505335
58.1961955651641 9.5052079556303
58.2687686830759 9.14062463678421
58.3413418009877 8.48958299598761
58.4139149188995 8.6458329897788
58.4864880368114 8.6458329897788
58.5590611547232 8.43749966472389
58.631634272635 9.2187496336798
58.7042073905468 8.56770799288321
58.7767805084586 8.85416631483371
58.8493536263704 8.30729133656457
58.9219267442822 9.14062463678421
58.9944998621941 9.8697912744764
59.0670729801059 8.54166632725134
59.1396460980177 8.43749966472389
59.2122192159295 8.2812496709327
59.2847923338413 8.48958299598761
59.3573654517531 8.88020798046557
59.429938569665 8.6458329897788
59.5025116875768 8.88020798046557
59.5750848054886 9.08854130552048
59.6476579234004 8.46354133035575
59.7202310413122 9.14062463678421
59.792804159224 9.37499962747098
59.8653772771358 8.6458329897788
59.9379503950477 8.33333300219643
60.0105235129595 8.30729133656457
60.0830966308713 8.6458329897788
60.1556697487831 7.89062468645475
60.2282428666949 8.20312467403711
60.3008159846067 8.82812464920185
60.3733891025186 8.54166632725134
60.4459622204304 8.12499967714152
60.5185353383422 8.77604131793812
60.591108456254 8.72395798667439
60.6636815741658 7.68229136139983
60.7362546920776 8.09895801150966
60.8088278099895 7.81249968955915
60.8814009279013 8.38541633346016
60.9539740458131 7.57812469887238
61.0265471637249 8.80208298356998
61.0991202816367 8.85416631483371
61.1716933995485 8.2812496709327
61.2442665174603 9.29687463057539
61.3168396353722 8.54166632725134
61.389412753284 7.49999970197679
61.4619858711958 7.96874968335034
61.5345589891076 9.19270796804794
61.6071321070194 8.69791632104253
61.6797052249312 8.15104134277338
61.7522783428431 8.67187465541066
61.8248514607549 8.72395798667439
61.8974245786667 9.53124962126217
61.9699976965785 7.96874968335034
62.0425708144903 7.76041635829543
62.1151439324021 8.12499967714152
62.187717050314 8.43749966472389
62.2602901682258 8.95833297736116
62.3328632861376 7.81249968955915
62.4054364040494 8.77604131793812
62.4780095219612 8.15104134277338
62.550582639873 8.90624964609744
62.6231557577848 8.48958299598761
62.6957288756967 8.15104134277338
62.7683019936085 8.12499967714152
62.8408751115203 8.04687468024593
62.9134482294321 7.81249968955915
62.9860213473439 7.83854135519102
63.0585944652557 7.78645802392729
63.1311675831676 7.60416636450424
63.2037407010794 7.60416636450424
63.2763138189912 8.61979132414693
63.348886936903 7.60416636450424
63.4214600548148 8.04687468024593
63.4940331727266 7.81249968955915
63.5666062906384 8.25520800530084
63.6391794085503 7.76041635829543
63.7117525264621 7.81249968955915
63.7843256443739 7.94270801771847
63.8568987622857 8.35937466782829
63.9294718801975 8.67187465541066
64.0020449981093 8.48958299598761
64.0746181160212 8.12499967714152
64.147191233933 8.59374965851507
64.2197643518448 8.02083301461406
64.2923374697566 9.11458297115235
64.3649105876684 8.02083301461406
64.4374837055802 8.15104134277338
64.5100568234921 8.54166632725134
64.5826299414039 7.91666635208661
64.6552030593157 8.74999965230625
64.7277761772275 8.20312467403711
64.8003492951393 8.02083301461406
64.8729224130511 7.81249968955915
64.9454955309629 7.49999970197679
65.0180686488748 7.57812469887238
65.0906417667866 7.94270801771847
65.1632148846984 8.09895801150966
65.2357880026102 8.2812496709327
65.308361120522 7.65624969576797
65.3809342384338 8.2812496709327
65.4535073563457 8.04687468024593
65.5260804742575 8.35937466782829
65.5986535921693 7.68229136139983
65.6712267100811 7.13541638313069
65.7437998279929 7.83854135519102
65.8163729459047 8.54166632725134
65.8889460638165 7.63020803013611
65.9615191817284 8.33333300219643
66.0340922996402 7.86458302082288
66.106665417552 7.89062468645475
66.1792385354638 8.30729133656457
66.2518116533756 7.96874968335034
66.3243847712874 8.54166632725134
66.3969578891993 8.02083301461406
66.4695310071111 8.09895801150966
66.5421041250229 8.02083301461406
66.6146772429347 6.90104139244392
66.6872503608465 6.97916638933951
66.7598234787583 8.48958299598761
66.8323965966702 7.47395803634492
66.904969714582 6.4843747423341
66.9775428324938 7.44791637071306
67.0501159504056 8.04687468024593
67.1226890683174 7.16145804876256
67.1952621862292 7.16145804876256
67.267835304141 6.92708305807578
67.3404084220529 7.78645802392729
67.4129815399647 7.65624969576797
67.4855546578765 7.29166637692188
67.5581277757883 8.38541633346016
67.6307008937001 7.7083330270317
67.7032740116119 7.36979137381747
67.7758471295238 8.25520800530084
67.8484202474356 7.89062468645475
67.9209933653474 8.56770799288321
67.9935664832592 7.47395803634492
68.066139601171 7.65624969576797
68.1387127190828 7.9947913489822
68.2112858369946 7.0572913862351
68.2838589549065 8.04687468024593
68.3564320728183 7.68229136139983
68.4290051907301 7.23958304565815
68.5015783086419 6.66666640175715
68.5741514265537 8.22916633966897
68.6467245444655 7.81249968955915
68.7192976623774 7.00520805497137
68.7918707802892 6.69270806738901
68.864443898201 7.13541638313069
68.9370170161128 7.7083330270317
69.0095901340246 7.76041635829543
69.0821632519364 7.76041635829543
69.1547363698483 7.9947913489822
69.2273094877601 7.23958304565815
69.2998826056719 6.87499972681206
69.3724557235837 7.26562471129001
69.4450288414955 7.60416636450424
69.5176019594073 7.36979137381747
69.5901750773191 8.15104134277338
69.662748195231 7.36979137381747
69.7353213131428 6.66666640175715
69.8078944310546 7.31770804255374
69.8804675489664 8.04687468024593
69.9530406668782 7.44791637071306
70.02561378479 7.76041635829543
70.0981869027019 6.7708330642846
70.1707600206137 6.7708330642846
70.2433331385255 7.55208303324052
